"Time (s)","Gravity X (m/s^2)","Gravity Y (m/s^2)","Gravity Z (m/s^2)"
2.332033333E-2,-1.974643829E-1,-2.730487084E-1,9.804210672E0
3.325033333E-2,-1.899695681E-1,-2.730032098E-1,9.804360361E0
4.317933333E-2,-1.860215098E-1,-2.726604350E-1,9.804445730E0
5.310933333E-2,-1.856175951E-1,-2.721757922E-1,9.804466780E0
6.303833332E-2,-1.886073678E-1,-2.719034033E-1,9.804417078E0
7.296833332E-2,-1.945237633E-1,-2.717562910E-1,9.804305397E0
8.289833332E-2,-2.021268248E-1,-2.715296200E-1,9.804158047E0
9.282733331E-2,-2.104720806E-1,-2.714071026E-1,9.803986139E0
1.027573333E-1,-2.186494299E-1,-2.712580717E-1,9.803811307E0
1.126873333E-1,-2.259017681E-1,-2.709869436E-1,9.803654017E0
1.226163334E-1,-2.310870789E-1,-2.705926403E-1,9.803544089E0
1.325463333E-1,-2.339619356E-1,-2.706029277E-1,9.803475677E0
1.424753334E-1,-2.347339508E-1,-2.707594687E-1,9.803452873E0
1.524053334E-1,-2.339206396E-1,-2.709365662E-1,9.803467491E0
1.623353334E-1,-2.326543337E-1,-2.712671897E-1,9.803488541E0
1.722643333E-1,-2.317849989E-1,-2.712795419E-1,9.803509006E0
1.821943333E-1,-2.317601848E-1,-2.712072740E-1,9.803511345E0
1.921233333E-1,-2.328733485E-1,-2.714154532E-1,9.803479185E0
2.020533333E-1,-2.355123979E-1,-2.716073332E-1,9.803410773E0
2.119833333E-1,-2.392940846E-1,-2.718501388E-1,9.803312539E0
2.219123333E-1,-2.446286456E-1,-2.718206104E-1,9.803181562E0
2.318423333E-1,-2.510308169E-1,-2.714442142E-1,9.803030119E0
2.417723333E-1,-2.578726439E-1,-2.712408772E-1,9.802858211E0
2.517013333E-1,-2.638971398E-1,-2.711339828E-1,9.802700921E0
2.616313333E-1,-2.674040988E-1,-2.709809137E-1,9.802610289E0
2.715603333E-1,-2.676472881E-1,-2.706804216E-1,9.802611458E0
2.814903333E-1,-2.648757993E-1,-2.702659819E-1,9.802698582E0
2.914203333E-1,-2.605052066E-1,-2.699411508E-1,9.802824297E0
3.013493333E-1,-2.561766042E-1,-2.697702294E-1,9.802943580E0
3.112793333E-1,-2.534457717E-1,-2.697028585E-1,9.803016086E0
3.212083333E-1,-2.535106210E-1,-2.696381737E-1,9.803016086E0
3.311383333E-1,-2.569913223E-1,-2.698733049E-1,9.802919022E0
3.410683333E-1,-2.643415099E-1,-2.699881113E-1,9.802720801E0
3.509973334E-1,-2.742045568E-1,-2.696378082E-1,9.802459431E0
3.609273334E-1,-2.844548172E-1,-2.693406783E-1,9.802175256E0
3.708573334E-1,-2.934662718E-1,-2.689721027E-1,9.801919733E0
3.807863333E-1,-3.001802458E-1,-2.687952427E-1,9.801721512E0
3.907163333E-1,-3.044287048E-1,-2.688711104E-1,9.801588196E0
4.006453333E-1,-3.067393417E-1,-2.687252954E-1,9.801520368E0
4.105753333E-1,-3.074106752E-1,-2.687365513E-1,9.801498733E0
4.205053333E-1,-3.077138168E-1,-2.686574860E-1,9.801491717E0
4.304343333E-1,-3.080095762E-1,-2.685475949E-1,9.801485285E0
4.403643333E-1,-3.083553294E-1,-2.682907377E-1,9.801481192E0
4.502933333E-1,-3.087803124E-1,-2.680636830E-1,9.801474175E0
4.602233333E-1,-3.090488823E-1,-2.678656268E-1,9.801471251E0
4.701533333E-1,-3.087431825E-1,-2.676347349E-1,9.801487039E0
4.800823333E-1,-3.075650782E-1,-2.673367462E-1,9.801532062E0
4.900123333E-1,-3.055980931E-1,-2.671463827E-1,9.801598721E0
4.999423333E-1,-3.028716461E-1,-2.668561598E-1,9.801691691E0
5.098713333E-1,-3.000262083E-1,-2.667374248E-1,9.801782323E0
5.198013333E-1,-2.974796545E-1,-2.668769357E-1,9.801855998E0
5.297303333E-1,-2.953804858E-1,-2.666471584E-1,9.801925580E0
5.396603333E-1,-2.945666447E-1,-2.665878275E-1,9.801951892E0
5.495903333E-1,-2.958696236E-1,-2.667053748E-1,9.801909208E0
5.595193334E-1,-2.988494196E-1,-2.671692234E-1,9.801806297E0
5.694493334E-1,-3.027475755E-1,-2.676246484E-1,9.801674150E0
5.793783334E-1,-3.065929421E-1,-2.686982703E-1,9.801525630E0
5.893083334E-1,-3.145754512E-1,-2.741304433E-1,9.801122172E0
5.992383334E-1,-3.222658554E-1,-2.779623247E-1,9.800764323E0
6.091673333E-1,-3.290795062E-1,-2.788462410E-1,9.800512893E0
6.190973333E-1,-3.376362485E-1,-2.787900164E-1,9.800223455E0
6.290273333E-1,-3.478630287E-1,-2.783193703E-1,9.799879054E0
6.389563333E-1,-3.583213221E-1,-2.772441404E-1,9.799532899E0
6.488863333E-1,-3.662607080E-1,-2.760904665E-1,9.799271529E0
6.588153333E-1,-3.697865791E-1,-2.750514711E-1,9.799168618E0
6.687453333E-1,-3.689820022E-1,-2.739741034E-1,9.799228844E0
6.786753333E-1,-3.642382292E-1,-2.726611659E-1,9.799443437E0
6.886043333E-1,-3.572136036E-1,-2.711263266E-1,9.799744568E0
6.985343333E-1,-3.489040523E-1,-2.690199403E-1,9.800101833E0
7.084633333E-1,-3.406720132E-1,-2.666211749E-1,9.800456759E0
7.183933333E-1,-3.326703910E-1,-2.642535824E-1,9.800795898E0
7.283233333E-1,-3.243090188E-1,-2.620762986E-1,9.801134452E0
7.382523333E-1,-3.147280270E-1,-2.599795419E-1,9.801502826E0
7.481823333E-1,-3.037430274E-1,-2.580194273E-1,9.801901022E0
7.581123333E-1,-2.916257328E-1,-2.564662606E-1,9.802309742E0
7.680413334E-1,-2.790691113E-1,-2.556763932E-1,9.802696243E0
7.779713334E-1,-2.670712277E-1,-2.551283811E-1,9.803044737E0
7.879003334E-1,-2.570759059E-1,-2.548553344E-1,9.803318971E0
7.978303334E-1,-2.504435737E-1,-2.555359686E-1,9.803472753E0
8.077603334E-1,-2.468752555E-1,-2.563228942E-1,9.803542920E0
8.176893333E-1,-2.463656341E-1,-2.569863705E-1,9.803538242E0
8.276193333E-1,-2.483168317E-1,-2.572652278E-1,9.803481524E0
8.375483333E-1,-2.528759240E-1,-2.571265575E-1,9.803368673E0
8.474783333E-1,-2.594054001E-1,-2.569417672E-1,9.803203197E0
8.574083333E-1,-2.668409205E-1,-2.568939296E-1,9.803004976E0
8.673373333E-1,-2.734297459E-1,-2.570849691E-1,9.802817865E0
8.772673333E-1,-2.777950943E-1,-2.575331217E-1,9.802683379E0
8.871973333E-1,-2.792664913E-1,-2.582558192E-1,9.802622568E0
8.971263333E-1,-2.788511746E-1,-2.589657626E-1,9.802616136E0
9.070563333E-1,-2.777322733E-1,-2.597980589E-1,9.802625492E0
9.169853333E-1,-2.766208821E-1,-2.605661455E-1,9.802636601E0
9.269153333E-1,-2.757324890E-1,-2.614142659E-1,9.802638940E0
9.368453333E-1,-2.765203465E-1,-2.625595892E-1,9.802586315E0
9.467743333E-1,-2.794293911E-1,-2.639021830E-1,9.802467617E0
9.567043333E-1,-2.846814333E-1,-2.652652421E-1,9.802279921E0
9.666333334E-1,-2.922525726E-1,-2.669915229E-1,9.802010365E0
9.765633334E-1,-3.019827962E-1,-2.686552385E-1,9.801670057E0
9.864933334E-1,-3.135079689E-1,-2.700214952E-1,9.801270107E0
9.964223334E-1,-3.259980601E-1,-2.711507936E-1,9.800831566E0
1.006352750E0,-3.377505250E-1,-2.722957149E-1,9.800401796E0
1.016282750E0,-3.469549195E-1,-2.735364027E-1,9.800045700E0
1.026211750E0,-3.530567084E-1,-2.748483900E-1,9.799791346E0
1.036141750E0,-3.564513094E-1,-2.759290286E-1,9.799638149E0
1.046070750E0,-3.583771995E-1,-2.769665073E-1,9.799538746E0
1.056000750E0,-3.603427776E-1,-2.776490053E-1,9.799446945E0
1.065930750E0,-3.630583707E-1,-2.781047958E-1,9.799334094E0
1.075859750E0,-3.675144972E-1,-2.783743341E-1,9.799160432E0
1.085789750E0,-3.727914997E-1,-2.785108484E-1,9.798956949E0
1.095718750E0,-3.782814870E-1,-2.784977652E-1,9.798747033E0
1.105648750E0,-3.830261736E-1,-2.785982460E-1,9.798559923E0
1.115578750E0,-3.856018356E-1,-2.787273050E-1,9.798455257E0
1.125507750E0,-3.853583721E-1,-2.786883479E-1,9.798465782E0
1.135437750E0,-3.813974683E-1,-2.788834439E-1,9.798615471E0
1.145366750E0,-3.740892527E-1,-2.791184654E-1,9.798890290E0
1.155296750E0,-3.639475860E-1,-2.793605219E-1,9.799265097E0
1.165226750E0,-3.520693329E-1,-2.796071282E-1,9.799691944E0
1.175155750E0,-3.398880843E-1,-2.800161044E-1,9.800110604E0
1.185085750E0,-3.281853208E-1,-2.801291749E-1,9.800506461E0
1.195015750E0,-3.177430341E-1,-2.798932946E-1,9.800857294E0
1.204944750E0,-3.092015677E-1,-2.794788549E-1,9.801142053E0
1.214874750E0,-3.020149742E-1,-2.791529092E-1,9.801375357E0
1.224803750E0,-2.967067805E-1,-2.791136597E-1,9.801538494E0
1.234733750E0,-2.927013281E-1,-2.791142262E-1,9.801658947E0
1.244663750E0,-2.882591070E-1,-2.794094010E-1,9.801782323E0
1.254592750E0,-2.834024280E-1,-2.797189562E-1,9.801915055E0
1.264522750E0,-2.773533189E-1,-2.799094475E-1,9.802082870E0
1.274451750E0,-2.692101941E-1,-2.801096233E-1,9.802303895E0
1.284381750E0,-2.597577314E-1,-2.800809171E-1,9.802560003E0
1.294311750E0,-2.492012414E-1,-2.802563519E-1,9.802828975E0
1.304240750E0,-2.381866402E-1,-2.805058635E-1,9.803095608E0
1.314170750E0,-2.275727013E-1,-2.807528901E-1,9.803340606E0
1.324099750E0,-2.182067226E-1,-2.807429133E-1,9.803554029E0
1.334029750E0,-2.106890306E-1,-2.801642948E-1,9.803734708E0
1.343959750E0,-2.054890469E-1,-2.795255047E-1,9.803863347E0
1.353888750E0,-2.027239168E-1,-2.793322177E-1,9.803926497E0
1.363818750E0,-2.039510281E-1,-2.800598306E-1,9.803880304E0
1.373748750E0,-2.085957091E-1,-2.805006924E-1,9.803769792E0
1.383677750E0,-2.184507708E-1,-2.806517881E-1,9.803551106E0
1.393607750E0,-2.325764013E-1,-2.806472017E-1,9.803226001E0
1.403536750E0,-2.506263357E-1,-2.806838930E-1,9.802780443E0
1.413466750E0,-2.708284658E-1,-2.805673506E-1,9.802246592E0
1.423396750E0,-2.920880283E-1,-2.802495728E-1,9.801644914E0
1.433325750E0,-3.132323458E-1,-2.800303570E-1,9.800998212E0
1.443255750E0,-3.329410440E-1,-2.799906507E-1,9.800349755E0
1.453184750E0,-3.501244759E-1,-2.798653376E-1,9.799754509E0
1.463114750E0,-3.637443953E-1,-2.798376181E-1,9.799259250E0
1.473044750E0,-3.730479001E-1,-2.797078099E-1,9.798913094E0
1.482973750E0,-3.761019740E-1,-2.801054389E-1,9.798785040E0
1.492903750E0,-3.732593501E-1,-2.802989269E-1,9.798887951E0
1.502832750E0,-3.651223282E-1,-2.804791308E-1,9.799189668E0
1.512762750E0,-3.539855751E-1,-2.802505412E-1,9.799604820E0
1.522692750E0,-3.399533173E-1,-2.803151164E-1,9.800099494E0
1.532621750E0,-3.247086029E-1,-2.806596270E-1,9.800607033E0
1.542551750E0,-3.091843915E-1,-2.808169719E-1,9.801104631E0
1.552481750E0,-2.940559453E-1,-2.810410665E-1,9.801563637E0
1.562410750E0,-2.801991771E-1,-2.814088929E-1,9.801958909E0
1.572340750E0,-2.682006175E-1,-2.816909480E-1,9.802286353E0
1.582269750E0,-2.586616708E-1,-2.817457839E-1,9.802541292E0
1.592199750E0,-2.518295282E-1,-2.819051022E-1,9.802714369E0
1.602129750E0,-2.481878275E-1,-2.819730213E-1,9.802805586E0
1.612058750E0,-2.476880916E-1,-2.821002348E-1,9.802814357E0
1.621988750E0,-2.504341085E-1,-2.819532138E-1,9.802748868E0
1.631917750E0,-2.560459372E-1,-2.817978606E-1,9.802608535E0
1.641847750E0,-2.641644124E-1,-2.816598663E-1,9.802396865E0
1.651777750E0,-2.743642588E-1,-2.815533374E-1,9.802119707E0
1.661706750E0,-2.861483353E-1,-2.814692106E-1,9.801785247E0
1.671636750E0,-2.988770111E-1,-2.813805522E-1,9.801408101E0
1.681565750E0,-3.116242519E-1,-2.811114523E-1,9.801018677E0
1.691495750E0,-3.238061582E-1,-2.808996370E-1,9.800629837E0
1.701425750E0,-3.349014327E-1,-2.806415007E-1,9.800264386E0
1.711354750E0,-3.440834250E-1,-2.804718949E-1,9.799950975E0
1.721284750E0,-3.509558403E-1,-2.802437804E-1,9.799714163E0
1.731214750E0,-3.551126259E-1,-2.801855823E-1,9.799565644E0
1.741143750E0,-3.561934837E-1,-2.800477890E-1,9.799530560E0
1.751073750E0,-3.540788747E-1,-2.800753440E-1,9.799606574E0
1.761002750E0,-3.489648999E-1,-2.801691735E-1,9.799787253E0
1.770932750E0,-3.410676505E-1,-2.803467462E-1,9.800060318E0
1.780862750E0,-3.308307838E-1,-2.804412518E-1,9.800408227E0
1.790791750E0,-3.189798664E-1,-2.805528057E-1,9.800798237E0
1.800721750E0,-3.065339217E-1,-2.808973894E-1,9.801185322E0
1.810650750E0,-2.948383027E-1,-2.811717152E-1,9.801536155E0
1.820580750E0,-2.849483587E-1,-2.813689856E-1,9.801823254E0
1.830510750E0,-2.774335171E-1,-2.815331462E-1,9.802033753E0
1.840439750E0,-2.729201062E-1,-2.817199648E-1,9.802155375E0
1.850369750E0,-2.717096777E-1,-2.817363735E-1,9.802188705E0
1.860298750E0,-2.738104544E-1,-2.816149524E-1,9.802133741E0
1.870228750E0,-2.785342007E-1,-2.814385675E-1,9.802005687E0
1.880158750E0,-2.851191705E-1,-2.813533626E-1,9.801818576E0
1.890087750E0,-2.931206100E-1,-2.812896280E-1,9.801584103E0
1.900017750E0,-3.017728629E-1,-2.812983805E-1,9.801321563E0
1.909946750E0,-3.106273016E-1,-2.812009330E-1,9.801047913E0
1.919876750E0,-3.194911323E-1,-2.810718375E-1,9.800766662E0
1.929806750E0,-3.277687066E-1,-2.811394276E-1,9.800491258E0
1.939735750E0,-3.355359652E-1,-2.811159839E-1,9.800229303E0
1.949665750E0,-3.424205134E-1,-2.810036626E-1,9.799994245E0
1.959594750E0,-3.481937253E-1,-2.809208148E-1,9.799793100E0
1.969524750E0,-3.526709383E-1,-2.807977127E-1,9.799636395E0
1.979454750E0,-3.554900637E-1,-2.810726780E-1,9.799527052E0
1.989383750E0,-3.560013296E-1,-2.813604889E-1,9.799500155E0
1.999313750E0,-3.543424380E-1,-2.820162724E-1,9.799541085E0
2.009243833E0,-3.507924472E-1,-2.827774520E-1,9.799646920E0
2.019172833E0,-3.459976573E-1,-2.834221623E-1,9.799798948E0
2.029102833E0,-3.408384762E-1,-2.839268501E-1,9.799965008E0
2.039031833E0,-3.352220428E-1,-2.844345894E-1,9.800143933E0
2.048961833E0,-3.289682995E-1,-2.847647013E-1,9.800346247E0
2.058891833E0,-3.219467071E-1,-2.851155708E-1,9.800569611E0
2.068820833E0,-3.143654997E-1,-2.853796822E-1,9.800807592E0
2.078750833E0,-3.072810497E-1,-2.857504871E-1,9.801021600E0
2.088679833E0,-3.009328190E-1,-2.858269942E-1,9.801216313E0
2.098609833E0,-2.960463923E-1,-2.858663350E-1,9.801364247E0
2.108539833E0,-2.930273652E-1,-2.860132098E-1,9.801450201E0
2.118468833E0,-2.919055769E-1,-2.861423967E-1,9.801480022E0
2.128398833E0,-2.928180532E-1,-2.864477492E-1,9.801443769E0
2.138327833E0,-2.959763171E-1,-2.867210152E-1,9.801341443E0
2.148257833E0,-3.008812905E-1,-2.869347310E-1,9.801185322E0
2.158187833E0,-3.068614024E-1,-2.869100447E-1,9.801001135E0
2.168116833E0,-3.135536868E-1,-2.867934476E-1,9.800792390E0
2.178046833E0,-3.203182941E-1,-2.865991008E-1,9.800579551E0
2.187976833E0,-3.269033918E-1,-2.864506363E-1,9.800366127E0
2.197905833E0,-3.333056179E-1,-2.862060217E-1,9.800157967E0
2.207835833E0,-3.393928983E-1,-2.862554307E-1,9.799947467E0
2.217764833E0,-3.452248381E-1,-2.863486572E-1,9.799741060E0
2.227694833E0,-3.506677553E-1,-2.863818584E-1,9.799546933E0
2.237624833E0,-3.561488622E-1,-2.865501303E-1,9.799344034E0
2.247553833E0,-3.617852492E-1,-2.864936316E-1,9.799139382E0
2.257483833E0,-3.673833734E-1,-2.864858292E-1,9.798931221E0
2.267412833E0,-3.735611029E-1,-2.864036576E-1,9.798700256E0
2.277342833E0,-3.806220909E-1,-2.863554181E-1,9.798430114E0
2.287272833E0,-3.891331153E-1,-2.864026526E-1,9.798093899E0
2.297201833E0,-3.994720889E-1,-2.864203770E-1,9.797677578E0
2.307131833E0,-4.114401699E-1,-2.865199258E-1,9.797179395E0
2.317060833E0,-4.246281994E-1,-2.866873572E-1,9.796611630E0
2.326990833E0,-4.380014028E-1,-2.866445081E-1,9.796023985E0
2.336920833E0,-4.511308140E-1,-2.866193102E-1,9.795429323E0
2.346849833E0,-4.633105276E-1,-2.866201690E-1,9.794860389E0
2.356779833E0,-4.742226380E-1,-2.862840638E-1,9.794348173E0
2.366708833E0,-4.840768044E-1,-2.857509804E-1,9.793881565E0
2.376638833E0,-4.928225945E-1,-2.853097166E-1,9.793458227E0
2.386568833E0,-5.005254605E-1,-2.846605661E-1,9.793086344E0
2.396497833E0,-5.071841601E-1,-2.841918021E-1,9.792757730E0
2.406427833E0,-5.127825036E-1,-2.839529616E-1,9.792472971E0
2.416356833E0,-5.177045801E-1,-2.838729644E-1,9.792216278E0
2.426286833E0,-5.222534215E-1,-2.838092663E-1,9.791976542E0
2.436216833E0,-5.266517702E-1,-2.835824309E-1,9.791747332E0
2.446145833E0,-5.311812793E-1,-2.834087320E-1,9.791507596E0
2.456075833E0,-5.354639262E-1,-2.833448877E-1,9.791276631E0
2.466004833E0,-5.394584516E-1,-2.830652994E-1,9.791064962E0
2.475934833E0,-5.431688388E-1,-2.828567183E-1,9.790866156E0
2.485864833E0,-5.465544863E-1,-2.827754785E-1,9.790680215E0
2.495793833E0,-5.498799806E-1,-2.825083156E-1,9.790501290E0
2.505723833E0,-5.532606214E-1,-2.822902876E-1,9.790317687E0
2.515653833E0,-5.567522497E-1,-2.822427972E-1,9.790120636E0
2.525582833E0,-5.600942624E-1,-2.823491069E-1,9.789927093E0
2.535512833E0,-5.629900228E-1,-2.822110761E-1,9.789765126E0
2.545441833E0,-5.651779778E-1,-2.819296057E-1,9.789647012E0
2.555371833E0,-5.667969257E-1,-2.815780419E-1,9.789563397E0
2.565301833E0,-5.688795942E-1,-2.816660790E-1,9.789440020E0
2.575230833E0,-5.718604682E-1,-2.817465330E-1,9.789264019E0
2.585160833E0,-5.757759100E-1,-2.817933473E-1,9.789033639E0
2.595089833E0,-5.804591643E-1,-2.819641774E-1,9.788751803E0
2.605019833E0,-5.853124264E-1,-2.822525730E-1,9.788454764E0
2.614949833E0,-5.891204987E-1,-2.825536315E-1,9.788217368E0
2.624878833E0,-5.912205262E-1,-2.827329766E-1,9.788085805E0
2.634808833E0,-5.911235720E-1,-2.827738157E-1,9.788090483E0
2.644737833E0,-5.888002540E-1,-2.828611403E-1,9.788227893E0
2.654667833E0,-5.852585224E-1,-2.828814045E-1,9.788439562E0
2.664597833E0,-5.818398381E-1,-2.827927461E-1,9.788645968E0
2.674526833E0,-5.793023658E-1,-2.827522907E-1,9.788797411E0
2.684456833E0,-5.782677741E-1,-2.829380129E-1,9.788853545E0
2.694385833E0,-5.785951816E-1,-2.832751597E-1,9.788824309E0
2.704315833E0,-5.800679490E-1,-2.834541393E-1,9.788731923E0
2.714245833E0,-5.824545632E-1,-2.834259813E-1,9.788591005E0
2.724174833E0,-5.846272058E-1,-2.834861711E-1,9.788460027E0
2.734104833E0,-5.858860748E-1,-2.835651450E-1,9.788382259E0
2.744033833E0,-5.860563384E-1,-2.836587370E-1,9.788369395E0
2.753963833E0,-5.849486565E-1,-2.837454403E-1,9.788433130E0
2.763893833E0,-5.828434761E-1,-2.838196451E-1,9.788556506E0
2.773822833E0,-5.802871100E-1,-2.838396353E-1,9.788707949E0
2.783752833E0,-5.774999981E-1,-2.839858522E-1,9.788868747E0
2.793681833E0,-5.746806534E-1,-2.840375270E-1,9.789033054E0
2.803611833E0,-5.724788478E-1,-2.838817718E-1,9.789166371E0
2.813541833E0,-5.705586953E-1,-2.837951233E-1,9.789280976E0
2.823470833E0,-5.690204025E-1,-2.838780259E-1,9.789368100E0
2.833400833E0,-5.676921709E-1,-2.840544839E-1,9.789440020E0
2.843329833E0,-5.661687885E-1,-2.843473380E-1,9.789520127E0
2.853259833E0,-5.637868521E-1,-2.846036471E-1,9.789649935E0
2.863189833E0,-5.604213775E-1,-2.850084388E-1,9.789831199E0
2.873118833E0,-5.558483433E-1,-2.854830683E-1,9.790077952E0
2.883048833E0,-5.500954871E-1,-2.857811484E-1,9.790394286E0
2.892977833E0,-5.430941407E-1,-2.860820242E-1,9.790776694E0
2.902907833E0,-5.351100966E-1,-2.862493825E-1,9.791211142E0
2.912837833E0,-5.264577523E-1,-2.864782827E-1,9.791673657E0
2.922766833E0,-5.176027655E-1,-2.870364542E-1,9.792129155E0
2.932696833E0,-5.093766467E-1,-2.874265731E-1,9.792549570E0
2.942626833E0,-5.022432263E-1,-2.875877188E-1,9.792913266E0
2.952555833E0,-4.957549731E-1,-2.874284918E-1,9.793248312E0
2.962485833E0,-4.892915706E-1,-2.874857945E-1,9.793571663E0
2.972414833E0,-4.827473303E-1,-2.876842344E-1,9.793890336E0
2.982344833E0,-4.755626006E-1,-2.878948255E-1,9.794235907E0
2.992274833E0,-4.685894670E-1,-2.881638705E-1,9.794563935E0
3.002203833E0,-4.637667566E-1,-2.883425029E-1,9.794788468E0
3.012133583E0,-4.619569703E-1,-2.881979123E-1,9.794877931E0
3.022062583E0,-4.632489857E-1,-2.878783619E-1,9.794826475E0
3.031992583E0,-4.677711126E-1,-2.875901673E-1,9.794620069E0
3.041922583E0,-4.750093078E-1,-2.873864466E-1,9.794277422E0
3.051851583E0,-4.843678495E-1,-2.871354549E-1,9.793826602E0
3.061781583E0,-4.953356912E-1,-2.870190770E-1,9.793281641E0
3.071710583E0,-5.073562875E-1,-2.868815030E-1,9.792670022E0
3.081640583E0,-5.196600352E-1,-2.863876326E-1,9.792039108E0
3.091570583E0,-5.313195660E-1,-2.859943342E-1,9.791425150E0
3.101499583E0,-5.421426525E-1,-2.855055984E-1,9.790846276E0
3.111429583E0,-5.520362876E-1,-2.850546501E-1,9.790306578E0
3.121358583E0,-5.623048753E-1,-2.845390719E-1,9.789737059E0
3.131288583E0,-5.743273354E-1,-2.839557756E-1,9.789055858E0
3.141218583E0,-5.889018859E-1,-2.834417505E-1,9.788205088E0
3.151147583E0,-6.062515980E-1,-2.830115233E-1,9.787157852E0
3.161077583E0,-6.256595300E-1,-2.825886417E-1,9.785948648E0
3.171006583E0,-6.472938625E-1,-2.820829855E-1,9.784556426E0
3.180936583E0,-6.703739190E-1,-2.817078501E-1,9.783012761E0
3.190866583E0,-6.937735990E-1,-2.813844625E-1,9.781390743E0
3.200795583E0,-7.150265468E-1,-2.807970000E-1,9.779876899E0
3.210725583E0,-7.257604998E-1,-2.782283548E-1,9.779159446E0
3.220654583E0,-7.280212527E-1,-2.758859053E-1,9.779057704E0
3.230584583E0,-7.160434507E-1,-2.740541189E-1,9.779993843E0
3.240514583E0,-6.900952618E-1,-2.723380707E-1,9.781907052E0
3.250443583E0,-6.549170968E-1,-2.706784847E-1,9.784371069E0
3.260373583E0,-6.141079170E-1,-2.692676795E-1,9.787056111E0
3.270302583E0,-5.709470601E-1,-2.678141348E-1,9.789708408E0
3.280232583E0,-5.285503246E-1,-2.664274310E-1,9.792126816E0
3.290162583E0,-4.899847945E-1,-2.655004281E-1,9.794157554E0
