"Time (s)","Gravity X (m/s^2)","Gravity Y (m/s^2)","Gravity Z (m/s^2)"
1.275245834E-2,-2.596658205E-1,-2.953549590E-1,9.802113860E0
2.268145833E-2,-2.548073325E-1,-2.947567341E-1,9.802259456E0
3.261045832E-2,-2.485733052E-1,-2.943093490E-1,9.802433118E0
4.253945837E-2,-2.407985001E-1,-2.940275863E-1,9.802635432E0
5.246833334E-2,-2.322466731E-1,-2.934178861E-1,9.802859965E0
6.239733333E-2,-2.228812426E-1,-2.930705981E-1,9.803088006E0
7.232633338E-2,-2.132071705E-1,-2.929533797E-1,9.803306692E0
8.225533337E-2,-2.026287900E-1,-2.927502985E-1,9.803537073E0
9.218433336E-2,-1.916284414E-1,-2.926063474E-1,9.803762775E0
1.021133334E-1,-1.811937745E-1,-2.923899091E-1,9.803967428E0
1.120423333E-1,-1.713839738E-1,-2.923878991E-1,9.804144014E0
1.219703333E-1,-1.623881422E-1,-2.922682322E-1,9.804300719E0
1.318993333E-1,-1.547237398E-1,-2.920980599E-1,9.804429358E0
1.418283334E-1,-1.485013796E-1,-2.919628979E-1,9.804529930E0
1.517573334E-1,-1.439062630E-1,-2.918212125E-1,9.804602435E0
1.616863334E-1,-1.410901982E-1,-2.917728816E-1,9.804645120E0
1.716153334E-1,-1.401069250E-1,-2.917255923E-1,9.804660323E0
1.815443333E-1,-1.411241852E-1,-2.918256528E-1,9.804642781E0
1.914733333E-1,-1.436808163E-1,-2.918774554E-1,9.804604189E0
2.014023333E-1,-1.477821538E-1,-2.917557968E-1,9.804546887E0
2.113313333E-1,-1.532495654E-1,-2.917570393E-1,9.804462687E0
2.212603334E-1,-1.597839568E-1,-2.918305863E-1,9.804356267E0
2.311893334E-1,-1.667518461E-1,-2.919632633E-1,9.804236400E0
2.411183334E-1,-1.740865386E-1,-2.920236906E-1,9.804107176E0
2.510463333E-1,-1.813884685E-1,-2.920336126E-1,9.803974444E0
2.609753333E-1,-1.883809709E-1,-2.919803299E-1,9.803844051E0
2.709043333E-1,-1.946336362E-1,-2.919737700E-1,9.803722429E0
2.808333333E-1,-1.998835405E-1,-2.919329126E-1,9.803617764E0
2.907623334E-1,-2.040655239E-1,-2.918016426E-1,9.803535318E0
3.006913334E-1,-2.063009693E-1,-2.920382173E-1,9.803481524E0
3.106203334E-1,-2.081086908E-1,-2.923634504E-1,9.803433577E0
3.205493334E-1,-2.092244127E-1,-2.922719598E-1,9.803412527E0
3.304783333E-1,-2.092798150E-1,-2.923206744E-1,9.803410188E0
3.404073333E-1,-2.080120473E-1,-2.921101929E-1,9.803443517E0
3.503363333E-1,-2.052230716E-1,-2.920373402E-1,9.803504328E0
3.602653333E-1,-2.014507770E-1,-2.919279973E-1,9.803585604E0
3.701943334E-1,-1.968311295E-1,-2.918787345E-1,9.803680914E0
3.801223334E-1,-1.916507339E-1,-2.916934326E-1,9.803789088E0
3.900513334E-1,-1.864322767E-1,-2.916006263E-1,9.803892583E0
3.999803333E-1,-1.812678879E-1,-2.914978615E-1,9.803992571E0
4.099093333E-1,-1.763716305E-1,-2.914799361E-1,9.804082618E0
4.198383333E-1,-1.719302682E-1,-2.915216706E-1,9.804159801E0
4.297673334E-1,-1.683852841E-1,-2.915059928E-1,9.804222366E0
4.396963334E-1,-1.660040055E-1,-2.913264833E-1,9.804267974E0
4.496253334E-1,-1.651936728E-1,-2.915496459E-1,9.804274991E0
4.595543334E-1,-1.659632578E-1,-2.915930067E-1,9.804260958E0
4.694833333E-1,-1.681143570E-1,-2.917080872E-1,9.804220612E0
4.794123333E-1,-1.716393327E-1,-2.919459958E-1,9.804152784E0
4.893413333E-1,-1.765734874E-1,-2.920801163E-1,9.804060983E0
4.992703333E-1,-1.829494558E-1,-2.922244694E-1,9.803939946E0
5.091983334E-1,-1.904260712E-1,-2.922777339E-1,9.803795519E0
5.191273334E-1,-1.989607585E-1,-2.923265764E-1,9.803624781E0
5.290563334E-1,-2.086105281E-1,-2.923667943E-1,9.803423052E0
5.389853333E-1,-2.190637965E-1,-2.922911459E-1,9.803197349E0
5.489143333E-1,-2.299605763E-1,-2.921938812E-1,9.802950597E0
5.588433333E-1,-2.405364169E-1,-2.922355060E-1,9.802695658E0
5.687723333E-1,-2.501966567E-1,-2.922421572E-1,9.802453583E0
5.787013334E-1,-2.586599167E-1,-2.924290489E-1,9.802228466E0
5.886303334E-1,-2.653983942E-1,-2.925877277E-1,9.802043694E0
5.985593334E-1,-2.703267016E-1,-2.926435138E-1,9.801906869E0
6.084883334E-1,-2.734227109E-1,-2.924142846E-1,9.801827931E0
6.184173333E-1,-2.741183286E-1,-2.925894088E-1,9.801803373E0
6.283463333E-1,-2.728683766E-1,-2.926771170E-1,9.801835533E0
6.382743333E-1,-2.697783424E-1,-2.929399493E-1,9.801913301E0
6.482033334E-1,-2.653382044E-1,-2.931974461E-1,9.802026737E0
6.581323334E-1,-2.600114457E-1,-2.932766941E-1,9.802167070E0
6.680613334E-1,-2.539592486E-1,-2.933049618E-1,9.802324945E0
6.779903334E-1,-2.473382088E-1,-2.934956724E-1,9.802488667E0
6.879193333E-1,-2.410631780E-1,-2.935780998E-1,9.802642449E0
6.978483333E-1,-2.354477679E-1,-2.936190303E-1,9.802777519E0
7.077773333E-1,-2.306597205E-1,-2.935357623E-1,9.802893879E0
7.177063333E-1,-2.268119785E-1,-2.935745184E-1,9.802982756E0
7.276353334E-1,-2.244796338E-1,-2.937124031E-1,9.803032458E0
7.375643334E-1,-2.233467358E-1,-2.936518296E-1,9.803059940E0
7.474933334E-1,-2.235238151E-1,-2.936718563E-1,9.803055262E0
7.574223334E-1,-2.249784379E-1,-2.935683788E-1,9.803025441E0
7.673503333E-1,-2.275896034E-1,-2.936420355E-1,9.802962876E0
7.772793333E-1,-2.316136207E-1,-2.936206566E-1,9.802869321E0
7.872083334E-1,-2.367521355E-1,-2.937361939E-1,9.802743021E0
7.971373334E-1,-2.428095768E-1,-2.937890199E-1,9.802593332E0
8.070663334E-1,-2.493103650E-1,-2.938875820E-1,9.802426686E0
8.169953334E-1,-2.558248393E-1,-2.940451096E-1,9.802254193E0
8.269243333E-1,-2.619101829E-1,-2.940687543E-1,9.802092810E0
8.368533333E-1,-2.675728640E-1,-2.941412415E-1,9.801937859E0
8.467823333E-1,-2.723420907E-1,-2.943237477E-1,9.801801034E0
8.567113333E-1,-2.756131876E-1,-2.944195142E-1,9.801706894E0
8.666403334E-1,-2.775345278E-1,-2.944725776E-1,9.801650761E0
8.765693334E-1,-2.776712065E-1,-2.942272139E-1,9.801654269E0
8.864973334E-1,-2.759055849E-1,-2.943377262E-1,9.801701047E0
8.964263333E-1,-2.726776660E-1,-2.943517778E-1,9.801791094E0
9.063553333E-1,-2.681360240E-1,-2.943422030E-1,9.801916224E0
9.162843333E-1,-2.627820758E-1,-2.942066390E-1,9.802065328E0
9.262133333E-1,-2.567706082E-1,-2.942246374E-1,9.802224373E0
9.361423334E-1,-2.506874757E-1,-2.941951455E-1,9.802382832E0
9.460713334E-1,-2.447306430E-1,-2.940515598E-1,9.802537199E0
9.560003334E-1,-2.398977914E-1,-2.939576207E-1,9.802659990E0
9.659293334E-1,-2.364904909E-1,-2.937661244E-1,9.802748283E0
9.758583333E-1,-2.343181224E-1,-2.937423883E-1,9.802800908E0
9.857873333E-1,-2.338682157E-1,-2.938096130E-1,9.802809679E0
9.957163333E-1,-2.352374143E-1,-2.939087051E-1,9.802774011E0
1.005644333E0,-2.381247877E-1,-2.939246022E-1,9.802703844E0
1.015573333E0,-2.425109486E-1,-2.940282075E-1,9.802593332E0
1.025502333E0,-2.481570931E-1,-2.943907166E-1,9.802441304E0
1.035431333E0,-2.544321605E-1,-2.947183982E-1,9.802270566E0
1.045360333E0,-2.596162653E-1,-2.948499423E-1,9.802130817E0
1.055289333E0,-2.622589693E-1,-2.949400991E-1,9.802057727E0
1.065218333E0,-2.603123581E-1,-2.950104849E-1,9.802107428E0
1.075147333E0,-2.522295692E-1,-2.950647910E-1,9.802316759E0
1.085076333E0,-2.378952479E-1,-2.951283977E-1,9.802673439E0
1.095005333E0,-2.183551688E-1,-2.948279056E-1,9.803137123E0
1.104934333E0,-1.952126567E-1,-2.945627344E-1,9.803632967E0
1.114863333E0,-1.701332544E-1,-2.943348757E-1,9.804107176E0
1.124791333E0,-1.455252656E-1,-2.940027539E-1,9.804513558E0
1.134720333E0,-1.231330152E-1,-2.939746324E-1,9.804821121E0
1.144649333E0,-1.046879004E-1,-2.939994100E-1,9.805034544E0
1.154578333E0,-9.102396238E-2,-2.941546170E-1,9.805166107E0
1.164507333E0,-8.227898542E-2,-2.941797783E-1,9.805242705E0
1.174436333E0,-7.827138604E-2,-2.941461751E-1,9.805276619E0
1.184365333E0,-7.823226451E-2,-2.942480080E-1,9.805273696E0
1.194294333E0,-8.115758082E-2,-2.945622959E-1,9.805240951E0
1.204223333E0,-8.564927484E-2,-2.947549616E-1,9.805196512E0
1.214152333E0,-9.024873122E-2,-2.949286970E-1,9.805150319E0
1.224081333E0,-9.384318827E-2,-2.950118371E-1,9.805114067E0
1.234010333E0,-9.552829186E-2,-2.951596803E-1,9.805093601E0
1.243939333E0,-9.527062152E-2,-2.952718189E-1,9.805092432E0
1.253867333E0,-9.356709005E-2,-2.955964308E-1,9.805098864E0
1.263796333E0,-9.150467659E-2,-2.957995301E-1,9.805112312E0
1.273725333E0,-8.976326614E-2,-2.961001684E-1,9.805119329E0
1.283654333E0,-8.913735825E-2,-2.963528960E-1,9.805117575E0
1.293583333E0,-8.947091449E-2,-2.963896238E-1,9.805113482E0
1.303512333E0,-9.093354980E-2,-2.966050024E-1,9.805093601E0
1.313441333E0,-9.224699889E-2,-2.965073356E-1,9.805084246E0
1.323370333E0,-9.233281592E-2,-2.966187251E-1,9.805080153E0
1.333299333E0,-8.982797837E-2,-2.966834830E-1,9.805101203E0
1.343228333E0,-8.454300905E-2,-2.968204357E-1,9.805143887E0
1.353157333E0,-7.671298429E-2,-2.969719882E-1,9.805204114E0
1.363086333E0,-6.685628262E-2,-2.970227677E-1,9.805274280E0
1.373014333E0,-5.541552454E-2,-2.974180943E-1,9.805333922E0
1.382943333E0,-4.356193477E-2,-2.978577683E-1,9.805380115E0
1.392872333E0,-3.255763480E-2,-2.977093404E-1,9.805427477E0
1.402801333E0,-2.182986701E-2,-2.977360001E-1,9.805456713E0
1.412730333E0,-1.277059193E-2,-2.978344708E-1,9.805469577E0
1.422659333E0,-5.032465537E-3,-2.978756937E-1,9.805475425E0
1.432588333E0,1.741391756E-3,-2.981297004E-1,9.805468408E0
1.442517333E0,7.618618214E-3,-2.983618349E-1,9.805459052E0
1.452446333E0,1.295635295E-2,-2.987059070E-1,9.805442680E0
1.462375333E0,1.802909004E-2,-2.991256640E-1,9.805421630E0
1.472304333E0,2.304274170E-2,-2.995632184E-1,9.805398241E0
1.482233333E0,2.766674040E-2,-2.997815023E-1,9.805379530E0
1.492161333E0,3.135268582E-2,-2.999876349E-1,9.805361989E0
1.502090333E0,3.451654340E-2,-3.002399057E-1,9.805343862E0
1.512019333E0,3.647528070E-2,-3.004143172E-1,9.805330998E0
1.521948333E0,3.752452929E-2,-3.006487905E-1,9.805319889E0
1.531877333E0,3.810822302E-2,-3.007580056E-1,9.805314626E0
1.541806333E0,3.890285506E-2,-3.010822337E-1,9.805301178E0
1.551735333E0,4.018539157E-2,-3.012693628E-1,9.805290653E0
1.561664333E0,4.251266106E-2,-3.013278715E-1,9.805278958E0
1.571593333E0,4.562867425E-2,-3.014662313E-1,9.805260832E0
1.581522333E0,4.997489138E-2,-3.014129303E-1,9.805240951E0
1.591451333E0,5.499673143E-2,-3.015087698E-1,9.805211130E0
1.601380333E0,6.027006570E-2,-3.016000777E-1,9.805177217E0
1.611308333E0,6.543271401E-2,-3.015350640E-1,9.805146226E0
1.621237333E0,6.875364928E-2,-3.016875119E-1,9.805118744E0
1.631166333E0,6.963572460E-2,-3.020364993E-1,9.805101787E0
1.641095333E0,6.792947510E-2,-3.020397335E-1,9.805114067E0
1.651024333E0,6.332505316E-2,-3.022793414E-1,9.805137455E0
1.660953333E0,5.620730606E-2,-3.023982409E-1,9.805177217E0
1.670882333E0,4.725088831E-2,-3.025382452E-1,9.805219901E0
1.680811333E0,3.721254151E-2,-3.026875685E-1,9.805258493E0
1.690740333E0,2.686785771E-2,-3.029768595E-1,9.805283636E0
1.700669333E0,1.661977631E-2,-3.032710292E-1,9.805297084E0
1.710598333E0,7.040592967E-3,-3.034120019E-1,9.805304101E0
1.720527333E0,-1.139386643E-3,-3.037319177E-1,9.805297084E0
1.730455333E0,-7.918057325E-3,-3.038445863E-1,9.805290068E0
1.740384333E0,-1.333356345E-2,-3.040056588E-1,9.805279543E0
1.750313333E0,-1.778424816E-2,-3.041733277E-1,9.805267264E0
1.760242333E0,-2.151562028E-2,-3.045222055E-1,9.805248553E0
1.770171333E0,-2.533996427E-2,-3.047913053E-1,9.805231011E0
1.780100333E0,-2.938682222E-2,-3.046744523E-1,9.805223410E0
1.790029333E0,-3.408552138E-2,-3.047277534E-1,9.805206453E0
1.799958333E0,-4.067612828E-2,-3.043234367E-1,9.805194173E0
1.809887333E0,-4.959735311E-2,-3.042188994E-1,9.805156167E0
1.819816333E0,-6.103334662E-2,-3.039665555E-1,9.805099449E0
1.829745333E0,-7.543038840E-2,-3.036956467E-1,9.805007647E0
1.839673333E0,-9.271917069E-2,-3.039022910E-1,9.804853281E0
1.849602333E0,-1.116904436E-1,-3.039047943E-1,9.804655645E0
1.859531333E0,-1.315753531E-1,-3.040638751E-1,9.804403630E0
1.869460333E0,-1.515410273E-1,-3.041278656E-1,9.804113608E0
1.879389333E0,-1.709393296E-1,-3.041680652E-1,9.803793181E0
1.889318333E0,-1.890982598E-1,-3.041547445E-1,9.803460474E0
1.899247333E0,-2.054325116E-1,-3.040678037E-1,9.803134199E0
1.909176333E0,-2.194528739E-1,-3.042004990E-1,9.802826051E0
1.919105333E0,-2.307422759E-1,-3.043235646E-1,9.802562926E0
1.929034333E0,-2.388578275E-1,-3.043613157E-1,9.802367629E0
1.938963333E0,-2.435984393E-1,-3.044381883E-1,9.802248346E0
1.948892333E0,-2.448254044E-1,-3.045114795E-1,9.802215602E0
1.958820333E0,-2.426852687E-1,-3.045552788E-1,9.802267642E0
1.968749333E0,-2.375365578E-1,-3.044667483E-1,9.802396281E0
1.978678333E0,-2.295830106E-1,-3.045514598E-1,9.802583392E0
1.988607333E0,-2.192850223E-1,-3.045529764E-1,9.802819034E0
1.998536333E0,-2.073178732E-1,-3.044626552E-1,9.803082159E0
2.008465333E0,-1.943275710E-1,-3.044837052E-1,9.803347623E0
2.018394333E0,-1.808427588E-1,-3.043106642E-1,9.803611332E0
2.028323333E0,-1.675634580E-1,-3.041434886E-1,9.803852237E0
2.038252333E0,-1.547695308E-1,-3.041649954E-1,9.804062153E0
2.048181333E0,-1.429553047E-1,-3.040843586E-1,9.804244001E0
2.058110167E0,-1.325740941E-1,-3.042102931E-1,9.804385504E0
2.068038167E0,-1.241552364E-1,-3.042104210E-1,9.804496016E0
2.077967167E0,-1.177874450E-1,-3.042545309E-1,9.804573199E0
2.087896167E0,-1.138354490E-1,-3.042989697E-1,9.804618223E0
2.097825167E0,-1.121210088E-1,-3.041012059E-1,9.804644535E0
2.107754167E0,-1.130459287E-1,-3.041073821E-1,9.804633425E0
2.117683167E0,-1.162299934E-1,-3.042200506E-1,9.804593080E0
2.127612167E0,-1.214311100E-1,-3.044436518E-1,9.804522913E0
2.137541167E0,-1.284153259E-1,-3.044664742E-1,9.804433451E0
2.147470167E0,-1.366943803E-1,-3.045774982E-1,9.804317676E0
2.157399167E0,-1.459462103E-1,-3.045697872E-1,9.804184944E0
2.167328167E0,-1.557029475E-1,-3.044722300E-1,9.804037594E0
2.177256167E0,-1.654510417E-1,-3.044601336E-1,9.803878550E0
2.187185167E0,-1.748212596E-1,-3.044097562E-1,9.803717167E0
2.197114167E0,-1.835819966E-1,-3.045536525E-1,9.803552860E0
2.207043167E0,-1.911626376E-1,-3.046857448E-1,9.803403756E0
2.216972167E0,-1.975467373E-1,-3.044916355E-1,9.803283303E0
2.226901167E0,-2.023627234E-1,-3.044373477E-1,9.803186824E0
2.236830167E0,-2.054080812E-1,-3.044268045E-1,9.803123674E0
2.246759167E0,-2.068427686E-1,-3.044011498E-1,9.803094438E0
2.256688167E0,-2.066215429E-1,-3.043341809E-1,9.803100870E0
2.266617167E0,-2.045499292E-1,-3.042919348E-1,9.803145894E0
2.276546167E0,-2.008634607E-1,-3.043673456E-1,9.803219569E0
2.286475167E0,-1.960981992E-1,-3.042495608E-1,9.803319556E0
2.296403167E0,-1.904732143E-1,-3.041710253E-1,9.803432992E0
2.306332167E0,-1.841643975E-1,-3.041490435E-1,9.803554029E0
2.316261167E0,-1.773513863E-1,-3.040877025E-1,9.803682083E0
2.326190167E0,-1.706326615E-1,-3.039933614E-1,9.803803706E0
2.336119167E0,-1.641359298E-1,-3.040005607E-1,9.803914803E0
2.346048167E0,-1.581803396E-1,-3.040387869E-1,9.804011282E0
2.355977167E0,-1.532511003E-1,-3.039922285E-1,9.804091389E0
2.365906167E0,-1.495736676E-1,-3.040089661E-1,9.804147522E0
2.375835167E0,-1.471696123E-1,-3.039789078E-1,9.804184944E0
2.385764167E0,-1.459317567E-1,-3.039412480E-1,9.804204240E0
2.395693167E0,-1.460290398E-1,-3.038853889E-1,9.804204825E0
2.405621167E0,-1.472161251E-1,-3.038922411E-1,9.804186698E0
2.415550167E0,-1.496445468E-1,-3.040959252E-1,9.804143429E0
2.425479167E0,-1.529255748E-1,-3.041345533E-1,9.804091973E0
2.435408167E0,-1.572094460E-1,-3.038845666E-1,9.804031747E0
2.445337167E0,-1.620527861E-1,-3.038068169E-1,9.803955148E0
2.455266167E0,-1.671986282E-1,-3.038252722E-1,9.803868610E0
2.465195167E0,-1.723096794E-1,-3.037668366E-1,9.803781486E0
2.475124167E0,-1.770812267E-1,-3.037742918E-1,9.803696702E0
2.485053167E0,-1.815685627E-1,-3.037704545E-1,9.803614256E0
2.494982167E0,-1.855462591E-1,-3.038856812E-1,9.803536488E0
2.504911167E0,-1.887885401E-1,-3.038912726E-1,9.803474507E0
2.514839167E0,-1.909254416E-1,-3.038429417E-1,9.803434162E0
2.524768167E0,-1.922380319E-1,-3.037799563E-1,9.803410773E0
2.534697167E0,-1.925254957E-1,-3.036515916E-1,9.803409019E0
2.544626167E0,-1.918400741E-1,-3.036468225E-1,9.803422467E0
2.554555167E0,-1.901773635E-1,-3.035741160E-1,9.803457550E0
2.564484167E0,-1.876950560E-1,-3.036079750E-1,9.803504328E0
2.574413167E0,-1.845866396E-1,-3.037352433E-1,9.803559292E0
2.584342167E0,-1.808973754E-1,-3.037263994E-1,9.803628289E0
2.594271167E0,-1.771231439E-1,-3.036942397E-1,9.803697871E0
2.604200167E0,-1.733687198E-1,-3.037364859E-1,9.803763945E0
2.614129167E0,-1.700635081E-1,-3.037623415E-1,9.803821247E0
2.624057167E0,-1.669461382E-1,-3.038190047E-1,9.803872703E0
2.633986167E0,-1.641444448E-1,-3.038105628E-1,9.803920650E0
2.643915167E0,-1.619544798E-1,-3.036894158E-1,9.803960411E0
2.653844167E0,-1.604068680E-1,-3.037439776E-1,9.803984385E0
2.663773167E0,-1.596402980E-1,-3.036636149E-1,9.803999587E0
2.673702167E0,-1.594976077E-1,-3.037232565E-1,9.803999587E0
2.683631167E0,-1.601469410E-1,-3.036931799E-1,9.803990232E0
2.693560167E0,-1.612417773E-1,-3.038617076E-1,9.803966843E0
2.703489167E0,-1.629407224E-1,-3.037348596E-1,9.803942869E0
2.713418167E0,-1.650763813E-1,-3.035888985E-1,9.803911879E0
2.723347167E0,-1.675380591E-1,-3.034867915E-1,9.803873287E0
2.733275167E0,-1.701428475E-1,-3.034363775E-1,9.803830018E0
2.743204167E0,-1.725389268E-1,-3.033766080E-1,9.803789672E0
2.753133167E0,-1.746777835E-1,-3.034349523E-1,9.803749911E0
2.763062167E0,-1.765968945E-1,-3.036768260E-1,9.803708396E0
2.772991167E0,-1.784581729E-1,-3.036920653E-1,9.803673897E0
2.782920167E0,-1.802007893E-1,-3.036090531E-1,9.803644661E0
2.792849167E0,-1.814906303E-1,-3.035751393E-1,9.803621857E0
2.802778167E0,-1.823924171E-1,-3.035503434E-1,9.803606070E0
2.812707167E0,-1.827022282E-1,-3.035213266E-1,9.803601392E0
2.822636167E0,-1.822498364E-1,-3.034226731E-1,9.803612502E0
2.832565167E0,-1.812666271E-1,-3.034485470E-1,9.803630043E0
2.842493167E0,-1.796860334E-1,-3.033587740E-1,9.803661618E0
2.852422167E0,-1.778958900E-1,-3.033568737E-1,9.803694363E0
2.862351167E0,-1.756712985E-1,-3.034208458E-1,9.803732954E0
2.872280167E0,-1.736363213E-1,-3.033929985E-1,9.803769792E0
2.882209167E0,-1.724080588E-1,-3.032926091E-1,9.803794350E0
2.892138167E0,-1.714105056E-1,-3.033690980E-1,9.803809553E0
2.902067167E0,-1.701529340E-1,-3.033626295E-1,9.803831772E0
2.911996167E0,-1.689199389E-1,-3.033532740E-1,9.803853407E0
2.921925167E0,-1.677247863E-1,-3.032118444E-1,9.803878550E0
2.931854167E0,-1.670174194E-1,-3.031151278E-1,9.803893168E0
2.941783167E0,-1.668296324E-1,-3.031098653E-1,9.803896676E0
2.951711167E0,-1.670854846E-1,-3.030571490E-1,9.803894337E0
2.961640167E0,-1.678460429E-1,-3.030788751E-1,9.803880304E0
2.971569167E0,-1.690860546E-1,-3.032330223E-1,9.803854576E0
2.981498167E0,-1.705608686E-1,-3.033559052E-1,9.803824756E0
2.991427167E0,-1.721422846E-1,-3.034688844E-1,9.803793765E0
3.001356167E0,-1.738313990E-1,-3.034031946E-1,9.803766283E0
3.011285167E0,-1.753229689E-1,-3.034763579E-1,9.803737047E0
3.021214167E0,-1.758577699E-1,-3.033638355E-1,9.803731200E0
3.031143167E0,-1.756784066E-1,-3.032666255E-1,9.803737632E0
3.041072167E0,-1.760026712E-1,-3.033758223E-1,9.803728276E0
3.051001167E0,-1.762952147E-1,-3.033023849E-1,9.803725353E0
3.060929167E0,-1.765526384E-1,-3.031853492E-1,9.803724183E0
3.070858167E0,-1.762410914E-1,-3.032713033E-1,9.803727107E0
3.080787167E0,-1.757130330E-1,-3.032322183E-1,9.803737632E0
3.090716167E0,-1.748948431E-1,-3.032488098E-1,9.803751665E0
3.100645167E0,-1.736805409E-1,-3.033669601E-1,9.803769792E0
3.110574167E0,-1.724014442E-1,-3.034923829E-1,9.803788503E0
3.120503167E0,-1.713027524E-1,-3.035558252E-1,9.803806044E0
3.130432167E0,-1.704614294E-1,-3.034287396E-1,9.803824171E0
3.140361167E0,-1.698202457E-1,-3.033869137E-1,9.803837035E0
3.150290167E0,-1.693820151E-1,-3.035761260E-1,9.803838789E0
3.160219167E0,-1.689791054E-1,-3.037379659E-1,9.803840543E0
3.170147167E0,-1.687695010E-1,-3.036425832E-1,9.803846975E0
3.180076167E0,-1.686244535E-1,-3.036779954E-1,9.803848729E0
3.190005167E0,-1.689373344E-1,-3.035618734E-1,9.803846975E0
3.199934167E0,-1.694819660E-1,-3.036465849E-1,9.803834696E0
3.209863167E0,-1.703760600E-1,-3.036751632E-1,9.803818324E0
3.219792167E0,-1.714772187E-1,-3.036812845E-1,9.803799028E0
3.229721167E0,-1.727364714E-1,-3.037985212E-1,9.803773300E0
3.239650167E0,-1.739900596E-1,-3.038288901E-1,9.803749911E0
3.249579167E0,-1.745844291E-1,-3.039611286E-1,9.803735293E0
3.259508167E0,-1.745446680E-1,-3.038434351E-1,9.803739971E0
3.269436167E0,-1.746618681E-1,-3.042257334E-1,9.803725938E0
3.279365167E0,-1.743604807E-1,-3.045095974E-1,9.803722429E0
