"Time (s)","X (m/s^2)","Y (m/s^2)","Z (m/s^2)"
4.648166650E-3,-4.601431274E-1,-2.975811768E-1,9.950408020E0
1.457716664E-2,-2.811154175E-1,-2.621049500E-1,9.930649109E0
2.450616669E-2,-1.416055298E-1,-2.606080627E-1,9.836494904E0
3.443516669E-2,-2.649490356E-2,-2.516267395E-1,9.824519806E0
4.436416668E-2,7.469467163E-2,-2.356100464E-1,9.698182526E0
5.429316667E-2,8.936416626E-2,-2.345622253E-1,9.758806458E0
6.422216666E-2,9.280700684E-3,-2.393522644E-1,9.789492645E0
7.415116666E-2,-1.459465027E-1,-2.508782959E-1,9.740095367E0
8.408016665E-2,-3.305126953E-1,-2.689906311E-1,9.827214203E0
9.400916670E-2,-4.805007935E-1,-2.817141724E-1,9.846823425E0
1.039381667E-1,-5.812413025E-1,-2.848576355E-1,9.848020935E0
1.138671667E-1,-6.265969849E-1,-2.848576355E-1,9.895172882E0
1.237961667E-1,-6.047424316E-1,-2.887495422E-1,9.846074982E0
1.337251667E-1,-5.628295898E-1,-2.832110596E-1,9.850715332E0
1.436541667E-1,-4.921765137E-1,-2.700384521E-1,9.832752686E0
1.535831667E-1,-4.305047607E-1,-2.683918762E-1,9.810598755E0
1.635121666E-1,-3.818559265E-1,-2.640509033E-1,9.813442841E0
1.734411667E-1,-3.366499329E-1,-2.606080627E-1,9.778565369E0
1.833701667E-1,-3.219804382E-1,-2.652484131E-1,9.802814941E0
1.933001667E-1,-2.887495422E-1,-2.618055725E-1,9.857002258E0
2.032291667E-1,-2.619552612E-1,-2.659968567E-1,9.837093658E0
2.131581667E-1,-2.459385681E-1,-2.595602417E-1,9.842781830E0
2.230871667E-1,-2.436932373E-1,-2.528242493E-1,9.843380585E0
2.330161667E-1,-2.453398132E-1,-2.612068176E-1,9.817185059E0
2.429451667E-1,-2.592608643E-1,-2.570155334E-1,9.843679962E0
2.528741666E-1,-2.716850281E-1,-2.650987244E-1,9.793833618E0
2.628031667E-1,-2.857557678E-1,-2.577639771E-1,9.774823151E0
2.727321667E-1,-3.085084534E-1,-2.640509033E-1,9.796378326E0
2.826611667E-1,-3.249742126E-1,-2.597099304E-1,9.821076965E0
2.925901667E-1,-3.213816833E-1,-2.658471680E-1,9.815388794E0
3.025191667E-1,-3.258723450E-1,-2.668949890E-1,9.805659027E0
3.124481667E-1,-3.287164307E-1,-2.528242493E-1,9.816885681E0
3.223771667E-1,-3.335064697E-1,-2.682421875E-1,9.825717316E0
3.323061666E-1,-3.435356140E-1,-2.668949890E-1,9.827663269E0
3.422351667E-1,-3.710783386E-1,-2.511776733E-1,9.800270233E0
3.521641667E-1,-3.641926575E-1,-2.646496582E-1,9.830507355E0
3.620931667E-1,-3.586541748E-1,-2.776725769E-1,9.840386810E0
3.720221667E-1,-3.403921509E-1,-2.748284912E-1,9.837542725E0
3.819511667E-1,-3.124003601E-1,-2.685415649E-1,9.855804749E0
3.918801667E-1,-2.862048340E-1,-2.618055725E-1,9.821526031E0
4.018091667E-1,-2.481838989E-1,-2.619552612E-1,9.792636108E0
4.117381666E-1,-2.222877502E-1,-2.595602417E-1,9.802665253E0
4.216681666E-1,-2.043251038E-1,-2.571652222E-1,9.813293152E0
4.315971667E-1,-1.760339355E-1,-2.588117981E-1,9.832004242E0
4.415261667E-1,-1.685494995E-1,-2.695893860E-1,9.807604980E0
4.514551667E-1,-1.971400452E-1,-2.601589966E-1,9.833351440E0
4.613841667E-1,-2.173480225E-1,-2.589614868E-1,9.810748444E0
4.713131667E-1,-2.484832764E-1,-2.733316040E-1,9.780361633E0
4.812421667E-1,-2.463876343E-1,-2.630030823E-1,9.827663269E0
4.911711667E-1,-2.408491516E-1,-2.652484131E-1,9.767338715E0
5.011001666E-1,-2.221380615E-1,-2.508782959E-1,9.771679688E0
5.110291667E-1,-2.091151428E-1,-2.555186462E-1,9.871821442E0
5.209581667E-1,-2.345622253E-1,-2.721340942E-1,9.942773895E0
5.308871667E-1,-2.921923828E-1,-2.665956116E-1,1.000399658E1
5.408161667E-1,-4.120930481E-1,-2.642005920E-1,1.001402573E1
5.507451667E-1,-5.062472534E-1,-2.659968567E-1,9.966574402E0
5.606741667E-1,-5.656736755E-1,-2.448907471E-1,9.837243347E0
5.706031666E-1,-5.301974487E-1,-2.944377136E-1,9.688602448E0
5.805321667E-1,-5.078938293E-1,-3.230282593E-1,9.448501740E0
5.904611667E-1,-4.159849548E-1,-2.998265076E-1,9.724378052E0
6.003901667E-1,-2.592608643E-1,-2.724334717E-1,9.916129303E0
6.103191667E-1,-4.056564331E-2,-2.547702026E-1,9.798773346E0
6.202481667E-1,1.778302002E-1,-2.284249878E-1,9.731263733E0
6.301781667E-1,3.171903992E-1,-2.237846375E-1,9.653724976E0
6.401071667E-1,3.242257690E-1,-2.285746765E-1,9.731563110E0
6.500361667E-1,2.157014465E-1,-2.466870117E-1,9.750274200E0
6.599651666E-1,2.110610962E-2,-2.576142883E-1,9.773925018E0
6.698941667E-1,-1.800755310E-1,-2.568658447E-1,9.955647125E0
6.798231667E-1,-3.701802063E-1,-2.656974792E-1,9.993218994E0
6.897521667E-1,-5.360353088E-1,-2.887495422E-1,9.888287201E0
6.996811667E-1,-6.658154297E-1,-3.079096985E-1,9.949809265E0
7.096101667E-1,-6.722520447E-1,-2.941383362E-1,9.972861328E0
7.195391667E-1,-6.337820435E-1,-3.001258850E-1,9.880653076E0
7.294681667E-1,-5.581892395E-1,-2.918930054E-1,9.869426422E0
7.393971666E-1,-4.912783813E-1,-2.883004761E-1,9.918075256E0
7.493261667E-1,-4.090992737E-1,-2.948867798E-1,9.976603546E0
7.592551667E-1,-3.236270142E-1,-2.728825378E-1,1.009081604E1
7.691841667E-1,-2.811154175E-1,-5.486091614E-1,1.032612671E1
7.791131667E-1,-2.404000854E-1,-4.242178345E-1,1.038525375E1
7.890421667E-1,-1.335223389E-1,-2.492317200E-1,9.577683105E0
7.989711667E-1,-2.070195007E-1,-1.588197327E-1,9.230405273E0
8.089001667E-1,-3.652404785E-2,-4.101470947E-2,9.284592590E0
8.188291666E-1,-3.891906738E-3,-5.508544922E-2,9.483678589E0
8.287581250E-1,-1.844165039E-1,-1.785786438E-1,9.375902710E0
8.386871250E-1,-3.761677551E-1,-4.556524658E-1,9.923464050E0
8.486171250E-1,-6.315367126E-1,-2.686912537E-1,1.028615982E1
8.585461250E-1,-7.536827087E-1,-2.932402039E-1,9.882898407E0
8.684751250E-1,-7.023394775E-1,-3.053649902E-1,9.508826294E0
8.784041250E-1,-8.252339172E-1,-2.847079468E-1,9.941576385E0
8.883331250E-1,-6.577322388E-1,-2.863545227E-1,1.004995102E1
8.982621250E-1,-4.965174866E-1,-2.842588806E-1,9.788145447E0
9.081911250E-1,-4.098477173E-1,-2.736309814E-1,9.781409454E0
9.181201250E-1,-3.002755737E-1,-2.595602417E-1,9.862989807E0
9.280491250E-1,-2.441423035E-1,-2.333647156E-1,9.881102142E0
9.379781250E-1,-1.511856079E-1,-2.531236267E-1,9.763596497E0
9.479071250E-1,-9.280700684E-2,-2.613565063E-1,9.754914551E0
9.578361250E-1,-1.496887207E-2,-2.395019531E-1,9.779912567E0
9.677651250E-1,3.263214111E-2,-2.432441711E-1,9.850865021E0
9.776941250E-1,7.005432129E-2,-2.399510193E-1,9.752669220E0
9.876231250E-1,7.514373779E-2,-2.487826538E-1,9.719138947E0
9.975521250E-1,8.173004150E-2,-2.402503967E-1,9.754615173E0
1.007481125E0,5.164260864E-2,-2.445913696E-1,9.810449066E0
1.017410125E0,-1.347198486E-3,-2.424957275E-1,9.787097626E0
1.027339125E0,-6.840774536E-2,-2.477348328E-1,9.762997742E0
1.037268125E0,-1.423539734E-1,-2.504292297E-1,9.829908600E0
1.047197125E0,-2.134561157E-1,-2.552192688E-1,9.816137238E0
1.057127125E0,-2.787203979E-1,-2.520758057E-1,9.815239105E0
1.067056125E0,-3.617976379E-1,-2.673440552E-1,9.838291168E0
1.076985125E0,-4.153862000E-1,-2.673440552E-1,9.862091675E0
1.086914125E0,-4.694238281E-1,-2.698887634E-1,9.840087433E0
1.096843125E0,-5.037025452E-1,-2.739303589E-1,9.857301636E0
1.106772125E0,-5.188211060E-1,-2.764750671E-1,9.870474243E0
1.116701125E0,-5.114863586E-1,-2.757266235E-1,9.854756927E0
1.126630125E0,-4.968168640E-1,-2.695893860E-1,9.855505371E0
1.136559125E0,-4.601431274E-1,-2.728825378E-1,9.852511597E0
1.146488125E0,-4.146377563E-1,-2.633024597E-1,9.856104126E0
1.156417125E0,-3.484753418E-1,-2.628533936E-1,9.833201752E0
1.166346125E0,-2.954855347E-1,-2.668949890E-1,9.834848328E0
1.176275125E0,-2.378553772E-1,-2.588117981E-1,9.842931519E0
1.186204125E0,-1.901046753E-1,-2.474354553E-1,9.810449066E0
1.196133125E0,-1.401086426E-1,-2.492317200E-1,9.790989532E0
1.206062125E0,-1.074765015E-1,-2.504292297E-1,9.798024902E0
1.215991125E0,-8.397537231E-2,-2.526745605E-1,9.806557159E0
1.225920125E0,-5.912704468E-2,-2.532733154E-1,9.787097626E0
1.235849125E0,-6.795867920E-2,-2.490820312E-1,9.784403229E0
1.245778125E0,-7.858657837E-2,-2.477348328E-1,9.792336731E0
1.255707125E0,-1.035845947E-1,-2.466870117E-1,9.810149689E0
1.265637125E0,-1.408570862E-1,-2.492317200E-1,9.804910583E0
1.275566125E0,-1.857637024E-1,-2.490820312E-1,9.796827393E0
1.285495125E0,-2.433938599E-1,-2.561174011E-1,9.832602997E0
1.295424125E0,-2.909948730E-1,-2.618055725E-1,9.836045837E0
1.305353125E0,-3.240760803E-1,-2.716850281E-1,9.841284943E0
1.315282125E0,-2.968327332E-1,-2.874023438E-1,9.768685913E0
1.325211125E0,3.209326172E-1,-1.833686829E-1,9.104217682E0
1.335140125E0,-2.785707092E-1,-2.453398132E-1,1.128473328E1
1.345069125E0,-2.496807861E-1,-2.088157654E-1,8.954379272E0
1.354998125E0,-2.630030823E-1,-2.743794250E-1,9.505832520E0
1.364927125E0,-6.718029785E-1,-2.797682190E-1,1.035426819E1
1.374856125E0,-7.345225525E-1,-3.162922668E-1,1.021685394E1
1.384785125E0,-1.001866608E0,-2.884501648E-1,9.215137024E0
1.394714125E0,-1.024469604E0,-3.391946411E-1,1.012719040E1
1.404643125E0,-1.059347076E0,-2.956352234E-1,1.009201355E1
1.414572125E0,-7.035369873E-1,-2.878514099E-1,9.719588013E0
1.424501125E0,-5.324427795E-1,-2.761756897E-1,9.849667511E0
1.434430125E0,-2.945874023E-1,-2.441423035E-1,1.008333160E1
1.444359125E0,-1.145118713E-1,-2.469863892E-1,9.920170898E0
1.454288125E0,1.478924561E-1,-2.338137817E-1,9.553433533E0
1.464217125E0,2.959346008E-1,-2.339634705E-1,9.779613190E0
1.474147125E0,3.221301270E-1,-2.005828857E-1,9.838740234E0
1.484076125E0,2.848576355E-1,-2.318678284E-1,9.739197235E0
1.494005125E0,3.140469360E-1,-2.257305908E-1,9.448950806E0
1.503934125E0,2.447410583E-1,-2.338137817E-1,9.829758911E0
1.513863125E0,2.264790344E-1,-2.168989563E-1,9.805958405E0
1.523792125E0,1.044827271E-1,-2.375559998E-1,9.677824860E0
1.533721125E0,1.242416382E-2,-2.378553772E-1,9.759854279E0
1.543650125E0,-1.287322998E-1,-2.489323425E-1,9.910291443E0
1.553579125E0,-2.249821472E-1,-2.653981018E-1,9.888436890E0
1.563508125E0,-3.999682617E-1,-2.752775574E-1,9.707762604E0
1.573437125E0,-5.161267090E-1,-2.905458069E-1,9.830507355E0
1.583366125E0,-6.134243774E-1,-2.610571289E-1,9.976753235E0
1.593295125E0,-7.078779602E-1,-2.959346008E-1,1.010728180E1
1.603224125E0,-6.575825500E-1,-2.589614868E-1,9.576335907E0
1.613153125E0,-6.677613831E-1,-2.981799316E-1,1.001686981E1
1.623082125E0,-5.566923523E-1,-2.722837830E-1,9.970316620E0
1.633011125E0,-4.822970581E-1,-2.805166626E-1,9.762997742E0
1.642940125E0,-3.176394653E-1,-2.615061951E-1,9.768835602E0
1.652869125E0,-2.335144043E-1,-2.538720703E-1,9.900561676E0
1.662798125E0,-8.337661743E-2,-2.558180237E-1,9.893226929E0
1.672728125E0,2.918930054E-2,-2.351609802E-1,9.577832794E0
1.682657125E0,1.609153748E-1,-2.329156494E-1,9.798024902E0
1.692586125E0,1.347198486E-1,-2.305206299E-1,9.807455292E0
1.702515125E0,1.279838562E-1,-2.365081787E-1,9.670190735E0
1.712444125E0,1.576222229E-1,-2.405497742E-1,9.933792572E0
1.722373125E0,1.886077881E-2,-2.350112915E-1,9.938881989E0
1.732302125E0,-2.273771667E-1,-2.609074402E-1,9.730365601E0
1.742231125E0,-4.611909485E-1,-2.733316040E-1,9.753567352E0
1.752160125E0,-6.237528992E-1,-2.854563904E-1,1.003318588E1
1.762089125E0,-6.806346130E-1,-2.814147949E-1,9.859996033E0
1.772018125E0,-6.716532898E-1,-2.868035889E-1,9.729018402E0
1.781947125E0,-6.289920044E-1,-2.784210205E-1,9.946366425E0
1.791876125E0,-5.661227417E-1,-2.722837830E-1,9.971514130E0
1.801805125E0,-4.998106384E-1,-2.758763123E-1,9.796677704E0
1.811734125E0,-4.228706360E-1,-2.655477905E-1,9.804461517E0
1.821663125E0,-3.132984924E-1,-2.573149109E-1,9.958191833E0
1.831591375E0,-1.856140137E-1,-2.501298523E-1,9.882449341E0
1.841520375E0,-9.430389404E-2,-2.459385681E-1,9.793085175E0
1.851449375E0,-9.430389404E-2,-2.499801636E-1,9.821226654E0
1.861379375E0,-1.442999268E-1,-2.528242493E-1,9.865684204E0
1.871308375E0,-2.860551453E-1,-2.570155334E-1,9.899663544E0
1.881237375E0,-4.463717651E-1,-2.721340942E-1,9.917775879E0
1.891166375E0,-5.026547241E-1,-2.679428101E-1,9.952952728E0
1.901095375E0,-4.989125061E-1,-2.751278687E-1,9.996362457E0
1.911024375E0,-4.354444885E-1,-2.695893860E-1,9.977052612E0
1.920953375E0,-3.347039795E-1,-2.592608643E-1,9.903106384E0
1.930882375E0,-2.110610962E-1,-2.616558838E-1,9.920021210E0
1.940811375E0,-6.810836792E-2,-2.507286072E-1,1.002749771E1
1.950740375E0,3.318598938E-1,-2.023791504E-1,1.031609756E1
1.960669375E0,5.333409119E-1,-1.932481384E-1,1.009291168E1
1.970598375E0,4.102967834E-1,-2.644999695E-1,9.667945404E0
1.980527375E0,2.312690735E-1,-3.580554199E-1,9.903256073E0
1.990456375E0,1.526824951E-1,-2.249821472E-1,1.042297531E1
2.000385375E0,-1.591191101E-1,-3.089575195E-1,1.089554260E1
2.010314375E0,-6.494993591E-1,-2.514770508E-1,1.135538635E1
2.020243375E0,-1.278641052E0,-2.261796570E-1,1.252864655E1
2.030172375E0,-5.233117676E-1,-1.869612122E-1,1.366942429E1
2.040101375E0,1.249601440E0,-1.871109009E-2,1.376762009E1
2.050030375E0,2.618355103E0,1.194515991E-1,1.274823990E1
2.059960375E0,2.613714752E0,-3.126997375E-1,1.219454132E1
2.069889375E0,2.412682800E0,-7.788304138E-1,1.156315430E1
2.079818375E0,3.053949280E0,-3.960763550E-1,1.052641022E1
2.089747375E0,4.000431061E0,-4.790039062E-3,9.769134979E0
2.099676375E0,4.800966339E0,1.703457642E-1,9.751771088E0
2.109605375E0,5.587730255E0,4.532574463E-1,8.611442413E0
2.119534375E0,6.445296936E0,7.764353943E-1,7.550748138E0
2.129463375E0,6.335425415E0,7.336244202E-1,5.824388123E0
2.139392375E0,6.064638519E0,4.525090027E-1,4.319866791E0
2.149321375E0,6.212231598E0,2.133064270E-1,3.481460266E0
2.159250375E0,6.735842743E0,8.996292114E-2,3.151396637E0
2.169179375E0,7.467221832E0,-9.400451660E-2,3.724405060E0
2.179108375E0,1.050335815E1,4.730163574E-1,4.213288422E0
2.189037375E0,1.372959915E1,-1.240919495E-1,2.264026932E1
2.198966375E0,1.193752579E1,2.127675476E0,4.774621124E0
2.208895375E0,6.243815918E0,1.838776245E0,2.989732819E0
2.218824375E0,5.606591034E0,-6.453080750E-1,1.026086243E1
2.228753375E0,6.717131653E0,1.008452911E0,1.842219086E0
2.238682375E0,6.161936188E0,6.354286194E-1,4.697232056E0
2.248612375E0,6.444698181E0,-3.288661194E-1,7.616461487E0
2.258541375E0,6.971752167E0,-2.888992310E-2,2.535726929E0
2.268470375E0,7.258555756E0,-2.016307068E-1,4.494703217E0
2.278399375E0,7.704328766E0,-2.230361938E-1,4.573439484E0
2.288328375E0,7.660320282E0,2.525248718E-1,1.797162781E0
2.298257375E0,7.422165527E0,5.528004456E-1,2.289938049E0
2.308186375E0,7.559729462E0,8.988807678E-1,1.818119202E0
2.318115375E0,7.818690948E0,1.201251984E0,6.177653503E-1
2.328044375E0,8.078999634E0,1.244661713E0,1.072968750E0
2.337973375E0,8.487051086E0,1.278341675E0,9.611512756E-1
2.347902375E0,8.844208374E0,1.167122955E0,8.750802612E-1
2.357831375E0,9.275760956E0,9.342073059E-1,1.016985168E0
2.367760375E0,9.462273102E0,7.598199463E-1,3.884422302E-1
2.377689375E0,9.456135864E0,6.764433289E-1,-1.137634277E-2
2.387618375E0,9.476493530E0,7.194039917E-1,-5.035528564E-1
2.397547375E0,9.353599091E0,7.557783508E-1,-1.142723694E0
2.407476375E0,9.103469238E0,8.425978088E-1,-1.634301453E0
2.417405375E0,8.833131409E0,9.901908875E-1,-1.240171051E0
2.427335375E0,8.631800079E0,1.167122955E0,-7.357200623E-1
2.437264375E0,8.413553925E0,1.281036072E0,-1.877096558E-1
2.447193375E0,8.198600922E0,1.287023621E0,2.905458069E-1
2.457122375E0,8.021519165E0,1.064885559E0,3.749702454E-1
2.467051375E0,7.806865540E0,7.448510742E-1,1.213975525E-1
2.476980375E0,7.735164642E0,5.679190063E-1,-1.489402771E-1
2.486909375E0,7.763455811E0,5.060975647E-1,-2.742297363E-1
2.496838375E0,7.723488922E0,4.727169800E-1,-7.253915405E-1
2.506767375E0,8.235574036E0,5.728587341E-1,-1.384021912E0
2.516696375E0,9.016200714E0,6.518943787E-1,-1.742376709E0
2.526625375E0,9.176517334E0,5.710624695E-1,-1.614392853E0
2.536554375E0,9.807006226E0,3.772155762E-1,-1.708996124E0
2.546483375E0,1.015697845E1,1.199006653E-1,-1.828597412E0
2.556412375E0,1.017419266E1,-1.239422607E-1,-2.177970886E0
2.566341375E0,1.024424698E1,-1.724414062E-1,-2.923420715E0
2.576270375E0,1.030277527E1,-5.029541016E-2,-3.262615356E0
2.586199375E0,1.033465897E1,1.968406677E-1,-3.652554474E0
2.596128375E0,9.792636108E0,4.243675232E-1,-3.724854126E0
2.606058375E0,8.589438171E0,2.398013306E-1,-4.262685699E0
2.615987375E0,7.725883942E0,2.776725769E-1,-5.402265930E0
2.625916375E0,8.565338287E0,1.143621826E-1,-6.310876465E0
2.635845375E0,7.824678497E0,-3.201841736E-1,-5.346132660E0
2.645774375E0,7.197782135E0,-4.842430115E-1,-6.776109009E0
2.655703375E0,7.993227997E0,-5.310955811E-1,-7.849377136E0
2.665632375E0,7.990234222E0,-7.701484680E-1,-7.799979858E0
2.675561375E0,7.937992859E0,-5.625302124E-1,-8.523425446E0
2.685490375E0,7.826774139E0,-3.959266663E-1,-9.033863983E0
2.695419375E0,7.166197815E0,-3.116519165E-1,-9.770631866E0
2.705348375E0,6.241570587E0,-4.565505981E-1,-8.438102875E0
2.715277375E0,5.398074646E0,-4.879852295E-1,-8.218210144E0
2.725206375E0,3.902534637E0,-5.777984619E-1,-7.873177643E0
2.735135375E0,4.700824585E0,-5.852828979E-1,-7.760462036E0
2.745064375E0,4.168681183E0,-5.460644531E-1,-7.923772430E0
2.754993375E0,4.222718811E0,-5.330415344E-1,-7.996670837E0
2.764922375E0,4.090693359E0,-5.041516113E-1,-8.060737610E0
2.774851375E0,4.100572815E0,-4.836442566E-1,-7.725285187E0
2.784780375E0,3.920197906E0,-3.905378723E-1,-7.529043274E0
2.794710375E0,3.841611328E0,-2.320175171E-1,-7.854466553E0
2.804639375E0,3.822301483E0,-1.354682922E-1,-8.089477844E0
2.814568375E0,4.019890594E0,-8.292755127E-2,-8.446335754E0
2.824498500E0,4.339925079E0,7.589218140E-2,-9.200916595E0
2.834427500E0,4.408632202E0,3.118016052E-1,-9.642648010E0
2.844356500E0,2.938389587E0,3.288661194E-1,-8.627309418E0
2.854285500E0,2.471061401E0,3.019221497E-1,-8.324040070E0
2.864214500E0,2.366578674E0,3.475772095E-1,-8.333620148E0
2.874143500E0,1.920057220E0,5.150788879E-1,-8.946894836E0
2.884072500E0,1.835183716E0,7.144642639E-1,-9.315578156E0
2.894001500E0,2.058668976E0,7.191046143E-1,-9.464967499E0
2.903930500E0,2.621797943E0,7.006929016E-1,-9.582173767E0
2.913859500E0,1.707948303E0,5.884263611E-1,-1.009216324E1
2.923788500E0,8.858578491E-1,2.757266235E-1,-9.836794281E0
2.933717500E0,1.838177490E0,1.981878662E-1,-9.555529175E0
2.943646500E0,2.142045593E-1,2.338137817E-1,-9.658814392E0
2.953575500E0,1.059796143E-1,2.697390747E-1,-9.894574127E0
2.963505500E0,6.843768311E-1,2.360591125E-1,-9.986333313E0
2.973434500E0,-1.887125702E0,7.200027466E-1,-1.951312225E1
2.983363500E0,-9.588311005E0,9.758207703E-1,-3.105876297E1
2.993292500E0,-2.634371796E0,-6.496490479E-2,-3.184028778E0
3.003221500E0,-1.037342834E0,9.129515076E-1,-4.743635559E0
3.013150500E0,-9.969268799E-2,1.191671906E0,-7.485783234E0
3.023079500E0,-3.830534363E-1,1.051263885E0,-7.623945923E0
3.033008500E0,7.147636414E-1,9.900411987E-1,-1.184681442E1
3.042937500E0,2.619552612E-1,7.899073792E-1,-1.480271759E1
3.052866500E0,1.064735870E0,5.873785400E-1,-1.012629227E1
3.062795500E0,1.620081024E0,3.589535522E-1,-8.305478668E0
3.072724500E0,2.908451843E0,2.371069336E-1,-8.085735626E0
3.082653500E0,1.332229614E-1,1.246907043E-1,-8.910520477E0
3.092582500E0,5.146298218E-1,2.436932373E-1,-1.230546066E1
3.102511500E0,-8.482859802E-1,8.158035278E-2,-9.414672089E0
3.112440500E0,4.893324280E-1,1.917512512E-1,-9.468560028E0
3.122369500E0,1.661544800E-1,1.273851013E-1,-9.434131622E0
3.132298500E0,2.392025757E-1,1.598675537E-1,-1.018122803E1
3.142228500E0,7.467970276E-1,1.926493835E-1,-9.721833344E0
3.152157500E0,6.601272583E-1,1.604663086E-1,-9.174272003E0
3.162086500E0,7.767347717E-1,1.381626892E-1,-9.885742493E0
3.172015500E0,4.406835938E-1,1.314266968E-1,-1.078896423E1
3.181944500E0,2.749781799E-1,1.161584473E-1,-9.838590546E0
3.191873500E0,3.809577942E-1,1.281335449E-1,-9.076225891E0
3.201802500E0,3.107537842E-1,1.288819885E-1,-9.502838745E0
3.211731500E0,3.379971313E-1,9.774673462E-2,-9.966873779E0
3.221660500E0,4.861889648E-1,9.729766846E-2,-1.000190094E1
3.231589500E0,5.333409119E-1,1.094224548E-1,-9.865684204E0
3.241518500E0,5.620811462E-1,1.038839722E-1,-9.745184784E0
3.251447500E0,5.448669434E-1,1.046324158E-1,-9.892179108E0
3.261376500E0,4.390370178E-1,9.520202637E-2,-9.732910309E0
3.271305500E0,3.857478333E-1,8.247848511E-2,-9.509724426E0
3.281234500E0,3.667373657E-1,7.753875732E-2,-9.903705139E0
3.291163500E0,3.736230469E-1,7.888595581E-2,-1.001552261E1
3.301093500E0,4.727169800E-1,8.442443848E-2,-9.710457001E0
3.311022500E0,5.028044128E-1,1.041833496E-1,-9.672885132E0
3.320951500E0,5.307962036E-1,8.427474976E-2,-9.735305328E0
